Frequency (GHz),Beta_TE_1,Alpha_TE_1,Beta_TM_1,Alpha_TM_1,Beta_TE_2,Alpha_TE_2,Beta_TM_2,Alpha_TM_2,Beta_TE_3,Alpha_TE_3,Beta_TM_3,Alpha_TM_3,Beta_TE_4,Alpha_TE_4,Beta_TM_4,Alpha_TM_4,Beta_TE_5,Alpha_TE_5,Beta_TM_5,Alpha_TM_5,Beta_TE_6,Alpha_TE_6,Beta_TM_6,Alpha_TM_6
10.0,2.063040967151369,0.0,0.8890133435810786,0.0,1.0000000000000275,0.0,0.0,0.0,1.0000000000000062,0.0,0.0,0.0,1.0000000000000062,0.0,0.0,0.0,1.0000000000000018,0.0,0.0,0.0,0.9999999999999964,0.0,0.0,0.0
10.90909090909091,2.152166104064179,0.0,0.9129058237879015,0.0,1.0000000000000382,0.0,0.0,0.0,1.0000000000000195,0.0,0.0,0.0,1.0000000000000018,0.0,0.0,0.0,0.9999999999999849,0.0,0.0,0.0,0.9999999999999067,0.0,0.0,0.0
11.818181818181818,2.2294189929539963,0.0,0.9312338781309255,0.0,1.0000000000002904,0.0,0.0,0.0,1.0000000000000249,0.0,0.0,0.0,1.0000000000000053,0.0,0.0,0.0,1.0000000000000018,0.0,0.0,0.0,0.9999999999999991,0.0,0.0,0.0
12.727272727272728,2.2977009090172626,0.0,0.9456902730253516,0.0,1.000000000000056,0.0,0.0,0.0,1.0000000000000195,0.0,0.0,0.0,1.0000000000000062,0.0,0.0,0.0,1.0000000000000044,0.0,0.0,0.0,1.0000000000000018,0.0,0.0,0.0
13.636363636363637,2.35879818570812,0.0,0.9573701977682788,0.0,1.0000000000000115,0.0,0.0,0.0,1.0000000000000107,0.0,0.0,0.0,1.0000000000000098,0.0,0.0,0.0,0.9999999999996572,0.0,0.0,0.0,0.0,0.0,0.0,0.0
14.545454545454547,2.413893829082537,0.0,0.9670126610948819,0.0,1.000000000000318,0.0,0.0,0.0,1.0000000000000302,0.0,0.0,0.0,1.0000000000000133,0.0,0.0,0.0,1.0000000000000115,0.0,0.0,0.0,1.0,0.0,0.0,0.0
15.454545454545457,2.463833605046842,0.0,0.9751343661378564,0.0,1.0000000000000107,0.0,0.0,0.0,1.0000000000000018,0.0,0.0,0.0,0.999999999999992,0.0,0.0,0.0,0.9999999999999609,0.0,0.0,0.0,0.0,0.0,0.0,0.0
16.363636363636363,2.509265769479397,0.0,0.9821082100989977,0.0,1.000000000000072,0.0,0.0,0.0,1.000000000000056,0.0,0.0,0.0,1.0000000000000107,0.0,0.0,0.0,1.000000000000008,0.0,0.0,0.0,1.0,0.0,0.0,0.0
17.272727272727273,2.550714853924859,0.0,0.9882115038056062,0.0,1.0000000000000497,0.0,0.0,0.0,1.0000000000000187,0.0,0.0,0.0,1.000000000000016,0.0,0.0,0.0,1.0000000000000142,0.0,0.0,0.0,1.0000000000000053,0.0,0.0,0.0
18.181818181818183,2.5886212432689435,0.0,0.9936568424579644,0.0,1.0000000000001705,0.0,0.0,0.0,1.0000000000000195,0.0,0.0,0.0,1.000000000000008,0.0,0.0,0.0,1.0000000000000044,0.0,0.0,0.0,1.0000000000000018,0.0,0.0,0.0
19.090909090909093,2.6233632205469704,0.0,0.9986126816542099,0.0,1.0000000000000586,0.0,0.0,0.0,1.0000000000000497,0.0,0.0,0.0,1.0000000000000098,0.0,0.0,0.0,1.0000000000000062,0.0,0.0,0.0,1.0000000000000009,0.0,0.0,0.0
20.0,2.6552700884972076,0.0,1.003217670360995,0.0,1.0000000000000302,0.0,0.0,0.0,1.0000000000000018,0.0,0.0,0.0,0.999999999999992,0.0,0.0,0.0,0.9999999999999334,0.0,0.0,0.0,0.0,0.0,0.0,0.0
20.909090909090914,2.6846307130195206,0.0,1.0075911960366257,0.0,1.0000000000000782,0.0,0.0,0.0,1.0000000000000373,0.0,0.0,0.0,1.0000000000000249,0.0,0.0,0.0,1.0000000000000107,0.0,0.0,0.0,1.0000000000000053,0.0,0.0,0.0
21.818181818181817,2.7116996373792612,0.0,1.0118417334280565,0.0,1.0000000000000302,0.0,0.0,0.0,1.0000000000000187,0.0,0.0,0.0,1.0000000000000098,0.0,0.0,0.0,0.0,0.0,0.0,0.0,0.0,0.0,0.0,0.0
22.72727272727273,2.7367018170507373,0.0,1.016074136751651,0.0,1.0000000000000213,0.0,0.0,0.0,1.0000000000000178,0.0,0.0,0.0,1.0000000000000178,0.0,0.0,0.0,1.000000000000008,0.0,0.0,0.0,1.0000000000000062,0.0,0.0,0.0
23.636363636363637,2.7598364901444814,0.0,1.0203968229250262,0.0,1.0000000000000275,0.0,0.0,0.0,1.0000000000000195,0.0,0.0,0.0,1.0000000000000107,0.0,0.0,0.0,1.000000000000008,0.0,0.0,0.0,1.0000000000000009,0.0,0.0,0.0
24.545454545454547,2.7812804437359517,0.0,1.0249297997974096,0.0,1.000000000000158,0.0,0.0,0.0,1.0000000000000329,0.0,0.0,0.0,1.0000000000000213,0.0,0.0,0.0,1.0000000000000133,0.0,0.0,0.0,0.9999999999999991,0.0,0.0,0.0
25.454545454545457,2.801190817129958,0.0,1.0298146949733293,0.0,1.0000000000000302,0.0,0.2934699441390493,0.0,1.0000000000000115,0.0,0.0,0.0,1.0000000000000062,0.0,0.0,0.0,1.0000000000000044,0.0,0.0,0.0,0.9999999999998908,0.0,0.0,0.0
26.363636363636367,2.8197075273106824,0.0,1.035228382535506,0.0,1.000000000000023,0.0,0.4155913819975878,0.0,1.0000000000000098,0.0,0.0,0.0,1.0000000000000018,0.0,0.0,0.0,0.999999999999873,0.0,0.0,0.0,0.38966667591125265,0.0,0.0,0.0
27.272727272727273,2.8369553751229946,0.0,1.0414025729610359,0.0,1.0000000000000382,0.0,0.5030978718740174,0.0,1.0000000000000115,0.0,0.0,0.0,0.4687981008499649,0.0,0.0,0.0,0.0,0.0,0.0,0.0,0.0,0.0,0.0,0.0
28.181818181818187,2.8530458770358873,0.0,1.0486529196163958,0.0,1.0000000000000249,0.0,0.5730840092537198,0.0,0.9999999999999911,0.0,0.0,0.0,0.9999999999999671,0.0,0.0,0.0,0.5306622160889748,0.0,0.0,0.0,0.0,0.0,0.0,0.0
29.090909090909093,2.868078859388766,0.0,1.057422746007158,0.0,1.0000000000000524,0.0,0.6321588973771316,0.0,1.0000000000000098,0.0,0.0,0.0,1.0,0.0,0.0,0.0,0.581673892242941,0.0,0.0,0.0,0.0,0.0,0.0,0.0
30.000000000000004,2.8821438466311657,0.0,1.068347631390041,0.0,1.000000000000096,0.0,0.6837093026499804,0.0,1.0000000000000107,0.0,0.0,0.0,1.0000000000000053,0.0,0.0,0.0,0.6252241127930438,0.0,0.0,0.0,0.0,0.0,0.0,0.0
30.90909090909091,2.8953212708765474,0.0,1.0823446343829328,0.0,1.0000000000000293,0.0,0.7296511042550723,0.0,1.0000000000000275,0.0,0.0,0.0,1.0000000000000178,0.0,0.0,0.0,0.9999999999999991,0.0,0.0,0.0,0.9999999999999956,0.0,0.0,0.0
31.818181818181824,2.907683526564199,0.0,1.100714726567704,0.0,1.0000000000000808,0.0,0.7710082252005053,0.0,1.0000000000000275,0.0,0.0,0.0,1.0000000000000142,0.0,0.0,0.0,1.0000000000000018,0.0,0.0,0.0,1.0000000000000009,0.0,0.0,0.0
32.72727272727273,2.919295890935456,0.0,1.1252014869063216,0.0,1.0000000000000497,0.0,0.8081335981526377,0.0,1.0000000000000284,0.0,0.0,0.0,1.0000000000000195,0.0,0.0,0.0,1.0000000000000142,0.0,0.0,0.0,1.0000000000000133,0.0,0.0,0.0
33.63636363636364,2.930217328305968,0.0,1.1578671377565282,0.0,1.0000000000000444,0.0,0.8408756819930283,0.0,1.0000000000000133,0.0,0.0,0.0,1.0000000000000044,0.0,0.0,0.0,0.9999999999999947,0.0,0.0,0.0,0.9999999999999858,0.0,0.0,0.0
34.54545454545455,2.940501193707569,0.0,1.2006106547924582,0.0,1.0000000000000728,0.0,0.8688731013939232,0.0,1.0000000000000133,0.0,0.0,0.0,1.0000000000000133,0.0,0.0,0.0,0.9999999999999893,0.0,0.0,0.0,0.7882047767951674,0.0,0.0,0.0
35.45454545454546,2.9501958493580576,0.0,1.2543603619866515,0.0,1.0000000000000622,0.0,0.8919642704438459,0.0,1.000000000000023,0.0,0.0,0.0,1.0000000000000195,0.0,0.0,0.0,1.000000000000016,0.0,0.0,0.0,1.0000000000000009,0.0,0.0,0.0
36.36363636363637,2.9593452055737144,0.0,1.3183992499221415,0.0,1.0000000000000533,0.0,0.9104472343049229,0.0,1.0000000000000213,0.0,0.0,0.0,0.8481592088929789,0.0,0.0,0.0,0.0,0.0,0.0,0.0,0.0,0.0,0.0,0.0
37.27272727272727,2.967989196134254,0.0,1.3903816483494984,0.0,1.0000000000000684,0.0,0.9250040895484293,0.0,1.0000000000000213,0.0,0.0,0.0,1.000000000000016,0.0,0.0,0.0,1.0000000000000044,0.0,0.0,0.0,1.0000000000000009,0.0,0.0,0.0
38.18181818181819,2.9761641967214616,0.0,1.4670812479273978,0.0,1.0000000000000213,0.0,0.9364454717842398,0.0,1.0000000000000107,0.0,0.27056315322531227,0.0,1.0000000000000062,0.0,0.0,0.0,1.0,0.0,0.0,0.0,0.9200385184727022,0.0,0.0,0.0
39.09090909090909,2.9839033938689106,0.0,1.5453399788589393,0.0,1.000000000000023,0.0,0.9455110343625935,0.0,0.9999999999999964,0.0,0.41566600699994993,0.0,0.9999999999999476,0.0,0.0,0.0,0.9647007394542866,0.0,0.0,0.0,0.44422931763174967,0.0,0.0,0.0
40.0,2.9912371108141165,0.0,1.6226799174911135,0.0,1.0167718085640662,0.0,0.9527925709595247,0.0,1.0000000000000213,0.0,0.5049681200624397,0.0,1.0000000000000187,0.0,0.0,0.0,1.0000000000000053,0.0,0.0,0.0,0.9999999999999947,0.0,0.0,0.0
40.909090909090914,2.998193095780274,0.0,1.6974559409029426,0.0,1.075822400848181,0.0,0.9587346869297967,0.0,1.0000000000000622,0.0,0.5686510510522677,0.0,1.0000000000000195,0.0,0.0,0.0,1.0000000000000107,0.0,0.0,0.0,0.9999999999999902,0.0,0.0,0.0
41.81818181818183,3.004796777449472,0.0,1.7687297195266676,0.0,1.1399998186099791,0.0,0.9636630610947072,0.0,1.0000000000000373,0.0,0.6171709997262166,0.0,1.0000000000000133,0.0,0.0,0.0,1.0000000000000133,0.0,0.0,0.0,1.000000000000008,0.0,0.0,0.0
42.727272727272734,3.0110714917408847,0.0,1.836064417235612,0.0,1.2068972788609897,0.0,0.9678151245454527,0.0,1.0000000000000435,0.0,0.6557280742597369,0.0,1.0000000000000107,0.0,0.0,0.0,1.000000000000008,0.0,0.0,0.0,1.0000000000000018,0.0,0.0,0.0
43.63636363636363,3.0170386834547505,0.0,1.8993428971563888,0.0,1.274408248121249,0.0,0.9713650525998395,0.0,1.0000000000000826,0.0,0.6873256199291101,0.0,1.0000000000000293,0.0,0.0,0.0,1.0000000000000284,0.0,0.0,0.0,1.000000000000023,0.0,0.0,0.0
44.54545454545455,3.022718085862824,0.0,1.9586366486603437,0.0,1.3410471837354356,0.0,0.9744421535882638,0.0,1.0000000000000764,0.0,0.7138484356999546,0.0,1.0000000000000249,0.0,0.0,0.0,1.0000000000000178,0.0,0.0,0.0,1.0000000000000178,0.0,0.0,0.0
45.45454545454546,3.028127880917962,0.0,2.014120259789248,0.0,1.405894805018347,0.0,0.9771438682280449,0.0,1.0000000000000666,0.0,0.7365464780144717,0.0,1.0000000000000435,0.0,0.0,0.0,1.0000000000000178,0.0,0.0,0.0,1.0000000000000062,0.0,0.0,0.0
46.363636363636374,3.0332848424044663,0.0,2.066018664561543,0.0,1.468436875705636,0.0,0.9795448447071669,0.0,1.0000000000000897,0.0,0.7562836947460415,0.0,1.0000000000000666,0.0,0.0,0.0,1.0000000000000187,0.0,0.0,0.0,1.0000000000000178,0.0,0.0,0.0
47.27272727272727,3.0382044640468457,0.0,2.114575823029962,0.0,1.528420914561316,0.0,0.9817032832441275,0.0,1.0000000000000622,0.0,0.7736775294850858,0.0,1.0000000000000488,0.0,0.0,0.0,1.0000000000000195,0.0,0.0,0.0,0.8090986802610592,0.0,0.0,0.0
48.18181818181819,3.042901074335686,0.0,2.1600367621769156,0.0,1.5857559814019215,0.0,0.9836654132412352,0.0,1.0000000000000675,0.0,0.7891819179207225,0.0,1.0000000000000515,0.0,0.0,0.0,1.000000000000023,0.0,0.0,0.0,0.8207451168588115,0.0,0.0,0.0
49.0909090909091,3.0473879396049233,0.0,2.202637729028358,0.0,1.6404482862634135,0.0,0.9854686991472948,0.0,1.0000000000000142,0.0,0.8031389181953197,0.0,1.0000000000000062,0.0,0.0,0.0,0.8309982205942994,0.0,0.0,0.0,0.0,0.0,0.0,0.0
50.0,3.0516773566997895,0.0,2.2426011848406056,0.0,1.6925610372471451,0.0,0.9871441807319914,0.0,1.0000000000000497,0.0,0.815811998891451,0.0,1.0000000000000187,0.0,0.0,0.0,0.9999999999999911,0.0,0.0,0.0,0.8401330559264462,0.0,0.0,0.0
50.909090909090914,3.0557807364096554,0.0,2.2801336435179205,0.0,1.7421896081432449,0.0,0.988718224523607,0.0,1.000000000000072,0.0,0.8274081556806555,0.0,1.0000000000000462,0.0,0.0,0.0,1.0000000000000213,0.0,0.0,0.0,1.0000000000000115,0.0,0.0,0.0
51.81818181818182,3.059708678692743,0.0,2.315425147959111,0.0,1.7894461930626764,0.0,0.9902138781078184,0.0,1.0000000000000302,0.0,0.8380929929904876,0.0,1.0000000000000293,0.0,0.11837204112797302,0.0,1.0000000000000107,0.0,0.0,0.0,0.8558089043691003,0.0,0.0,0.0
52.727272727272734,3.0634710405959726,0.0,2.348649660157413,0.0,1.8344503290156846,0.0,0.991651964032686,0.0,1.0000000000000497,0.0,0.8480012466075499,0.0,1.0000000000000213,0.0,0.21844548174243947,0.0,0.8626209186381018,0.0,0.0,0.0,0.21844548174247608,0.0,0.0,0.0
53.63636363636364,3.067076997663401,0.0,2.379965932738727,0.0,1.8773230707360844,0.0,0.9930520157980557,0.0,1.000000000000024,0.0,0.8572442748261566,0.0,1.0000000000000115,0.0,0.2823572103067809,0.0,1.000000000000008,0.0,0.19275677776306688,0.0,1.000000000000008,0.0,0.0,0.0
54.54545454545455,3.070535099531618,0.0,2.409518606073135,0.0,1.9181834574917394,0.0,0.9944331388164905,0.0,1.0000000000000497,0.0,0.8659154839989331,0.0,1.0000000000000435,0.0,0.33188217180047147,0.0,1.000000000000016,0.0,0.27456444082416,0.0,1.0000000000000133,0.0,0.0,0.0
55.45454545454546,3.0738533203293454,0.0,2.437439381656531,0.0,1.9571464289827878,0.0,0.9958148709475682,0.0,1.0000000000000329,0.0,0.874094310133759,0.0,1.0000000000000249,0.0,0.37293723392757466,0.0,1.0000000000000178,0.0,0.33436464792171705,0.0,0.8800310618305399,0.0,0.0,0.0
56.363636363636374,3.077039104424488,0.0,2.463848186823257,0.0,1.9943216619992612,0.0,0.9972181187365388,0.0,1.0000000000000488,0.0,0.8818491594771188,0.0,1.000000000000024,0.0,0.40820308543992245,0.0,1.0000000000000098,0.0,0.382837109793172,0.0,1.0000000000000062,0.0,0.0,0.0
57.27272727272727,3.0800994080012574,0.0,2.4888542846599777,0.0,2.029812992878733,0.0,0.9986662569589618,0.0,1.0000000000000657,0.0,0.8892395655255201,0.0,1.0000000000000435,0.0,0.4391764876044261,0.0,1.0000000000000107,0.0,0.4240675725814202,0.0,1.0000000000000098,0.0,0.0,0.0
58.18181818181819,3.083040736893208,0.0,2.5125573062010096,0.0,2.0637182112021253,0.0,1.0001865019806706,0.0,1.0000000000000444,0.0,0.8963177163618875,0.0,1.0000000000000302,0.0,0.46679927260174714,0.0,1.0000000000000213,0.0,0.4601638965157379,0.0,0.9999999999999956,0.0,0.0,0.0
59.0909090909091,3.085869181050981,0.0,2.535048195757885,0.0,2.0961290861160222,0.0,1.0018117065560985,0.0,1.0000000000000684,0.0,0.9031294249651702,0.0,1.0000000000000338,0.0,0.4923950758864173,0.0,1.0000000000000213,0.0,0.49171233073995474,0.0,1.0000000000000018,0.0,0.0,0.0
60.00000000000001,3.0885904459810702,0.0,2.556410068204457,0.0,2.127131535175296,0.0,1.0035827783449087,0.0,1.0000000000000568,0.0,0.9097145434178942,0.0,1.0000000000000142,0.0,0.5216034027900249,0.0,1.0000000000000009,0.0,0.5143765993088287,0.0,1.0,0.0,0.0,0.0
60.909090909090914,3.0912098814544575,0.0,2.576718981482168,0.0,2.156805876924754,0.0,1.005551998746068,0.0,1.0000000000000373,0.0,0.916106752971442,0.0,1.000000000000024,0.0,0.5483879174443856,0.0,1.0000000000000213,0.0,0.5351375498406401,0.0,1.000000000000016,0.0,0.0,0.0
61.81818181818183,3.0937325077518922,0.0,2.5960446298931275,0.0,2.185227128868934,0.0,1.007787608060536,0.0,1.000000000000063,0.0,0.9223325981630361,0.0,1.0000000000000115,0.0,0.5731978055234258,0.0,1.0000000000000107,0.0,0.5542625000838751,0.0,0.9093339362262841,0.0,0.0,0.0
62.727272727272734,3.0961630396832924,0.0,2.6144509647709286,0.0,2.2124653259107343,0.0,1.01038010399921,0.0,1.0000000000001004,0.0,0.9284095969884224,0.0,1.0000000000000302,0.0,0.5963846966297491,0.0,1.0000000000000115,0.0,0.5719636034522628,0.0,0.9999999999999796,0.0,0.0,0.0
63.63636363636365,3.0985059085939697,0.0,2.6319967493987964,0.0,2.2385858432280847,0.0,1.0134507064244809,0.0,1.0000000000000488,0.0,0.9343433137279472,0.0,1.000000000000016,0.0,0.6182340438050241,0.0,1.0000000000000044,0.0,0.5884127375271542,0.0,0.9999999999999991,0.0,0.0,0.0
64.54545454545455,3.1007652825472225,0.0,2.648736054851384,0.0,2.263649713464917,0.0,1.017162228756285,0.0,1.0000000000000417,0.0,0.9401235576149859,0.0,1.0000000000000275,0.0,0.6389848151180967,0.0,1.0000000000000107,0.0,0.6037515449920013,0.0,1.0000000000000098,0.0,0.0,0.0
65.45454545454545,3.1029450848537876,0.0,2.664718703067153,0.0,2.2877139320478297,0.0,1.0217319408155132,0.0,1.000000000000072,0.0,0.9457205599687883,0.0,1.0000000000000338,0.0,0.6588419592059624,0.0,1.000000000000024,0.0,0.6180984369413822,0.0,1.0000000000000107,0.0,0.0,0.0
66.36363636363637,3.1050490111002365,0.0,2.6799906629371706,0.0,2.310831747057386,0.0,1.0274447447042,0.0,1.0000000000000586,0.0,0.9510831650727641,0.0,1.0000000000000187,0.0,0.6779837369304533,0.0,1.0000000000000018,0.0,0.6315536180721855,0.0,0.9999999999999947,0.0,0.0,0.0
67.27272727272728,3.1070805448138747,0.0,2.6945944046474395,0.0,2.333052931820618,0.0,1.0346634528508634,0.0,1.0000000000000497,0.0,0.95614222251259,0.0,1.0000000000000133,0.0,0.6965646433932838,0.0,1.0000000000000115,0.0,0.6442027810057922,0.0,0.9275780449574562,0.0,0.0,0.0
68.18181818181819,3.1090429718865247,0.0,2.708569216981697,0.0,2.3544240395302976,0.0,1.0438324346317296,0.0,1.0000000000000515,0.0,0.9608218466699578,0.0,1.0000000000000462,0.0,0.7147137526703072,0.0,1.0000000000000435,0.0,0.656119879758106,0.0,1.0000000000000107,0.0,0.0,0.0
69.0909090909091,3.110939393868633,0.0,2.7219514917694134,0.0,2.3749886399361864,0.0,1.0554725594771528,0.0,1.0000000000000622,0.0,0.9650572316677454,0.0,1.000000000000016,0.0,0.732527836003122,0.0,1.000000000000008,0.0,0.6673692503538924,0.0,0.9999999999999991,0.0,0.0,0.0
70.0,3.112772740233061,0.0,2.7347749791930274,0.0,2.3947875386179667,0.0,1.0701669468883397,0.0,1.0000000000000728,0.0,0.9688118498579271,0.0,1.0,0.0,0.7500588932879501,0.0,0.9999999999999822,0.0,0.6780072585999228,0.0,0.9357824305657193,0.0,0.0,0.0
70.90909090909092,3.114545779698764,0.0,2.7470710172394237,0.0,2.4138589796315184,0.0,1.0885325703319915,0.0,1.0000000000000382,0.0,0.9720852243048772,0.0,1.0000000000000346,0.0,0.7672975882418333,0.0,1.0000000000000346,0.0,0.6880835988664604,0.0,0.9385746235470807,0.0,0.0,0.0
71.81818181818183,3.116261130695746,0.0,2.758868738186576,0.0,2.4322388324768247,0.0,1.111162247142811,0.0,1.000000000000111,0.0,0.9749083884861638,0.0,1.0000000000000195,0.0,0.784158197194264,0.0,1.000000000000008,0.0,0.6976423309231895,0.0,0.9999999999999911,0.0,0.24048775197549188,0.0
72.72727272727273,3.1179212710444797,0.0,2.7701952546904827,0.0,2.449960764409788,0.0,1.138520013734495,0.0,1.0000000000000941,0.0,0.9773318705738049,0.0,1.000000000000023,0.0,0.8004759183933992,0.0,1.0000000000000098,0.0,0.7067227171791036,0.0,1.0000000000000009,0.0,0.3410601266412545,0.0
73.63636363636365,3.1195285469167953,0.0,2.7810758277144676,0.0,2.467056399139581,0.0,1.170799006722009,0.0,1.0000000000000826,0.0,0.9794132709032466,0.0,1.0000000000000515,0.0,0.8160285039663272,0.0,1.0000000000000275,0.0,0.7153599057571436,0.0,1.000000000000023,0.0,0.4166152242613476,0.0
74.54545454545455,3.121085181137855,0.0,2.791534018284472,0.0,2.483555462936109,0.0,1.2077983711211235,0.0,1.0000000000000844,0.0,0.9812085342063379,0.0,1.0000000000000302,0.0,0.8305842498791973,0.0,1.0000000000000187,0.0,0.723585493022617,0.0,0.9524286141161965,0.0,0.477388629755995,0.0
75.45454545454547,3.122593280885125,0.0,2.801591824829408,0.0,2.4994859191352097,0.0,1.2488982863053746,0.0,1.0000000000000533,0.0,0.9827674491883798,0.0,1.0000000000000142,0.0,0.8439596832913572,0.0,1.0000000000000053,0.0,0.7314279907909368,0.0,0.9579611596375371,0.0,0.527210251609355,0.0
76.36363636363637,3.124054844831376,0.0,2.811269807636388,0.0,2.5148740919738177,0.0,1.2931661678272532,0.0,1.0000000000000622,0.0,0.9841321872253177,0.0,1.0000000000000497,0.0,0.8560598943306268,0.0,1.0000000000000178,0.0,0.7389132173917672,0.0,0.9659738900582642,0.0,0.5683119999296854,0.0
77.27272727272727,3.125471769780207,0.0,2.8205872017920592,0.0,2.529744780634654,0.0,1.3395432302570653,0.0,1.0000000000001288,0.0,0.9853375160857883,0.0,1.0000000000000435,0.0,0.8668855637213335,0.0,1.0000000000000329,0.0,0.7460646273343466,0.0,1.0000000000000187,0.0,0.6023990762169287,0.0
78.18181818181819,3.126845856832404,0.0,2.829562019813182,0.0,2.544121364312389,0.0,1.3870215493105358,0.0,1.000483710100984,0.0,0.9864117304411387,0.0,1.00000000000004,0.0,0.8765123315231883,0.0,1.000000000000023,0.0,0.7529035910359498,0.0,1.0000000000000195,0.0,0.6308920715477382,0.0
79.0909090909091,3.1281788171218006,0.0,2.8382111450275205,0.0,2.558025899055654,0.0,1.434753500699926,0.0,1.032887256220596,0.0,0.9873777673044188,0.0,1.0000000000000275,0.0,0.8850596956456107,0.0,1.0000000000000275,0.0,0.7594496336144823,0.0,0.999999999999992,0.0,0.6549652205214561,0.0
80.0,3.1294722771540795,0.0,2.846550416654435,0.0,2.5714792070774486,0.0,1.4820887117648542,0.0,1.0737318513551104,0.0,0.9882542607670936,0.0,1.0000000000000995,0.0,0.8926634968202629,0.0,1.0000000000000178,0.0,0.765720639873362,0.0,1.0000000000000044,0.0,0.6755601414432897,0.0
80.90909090909092,3.130727783779914,0.0,2.854594707419607,0.0,2.584500959170304,0.0,1.5285630284222522,0.0,1.1191862143382285,0.0,0.9890564474667338,0.0,1.000000000000119,0.0,0.8994575400029643,0.0,1.0000000000000417,0.0,0.771733031178325,0.0,1.0000000000000142,0.0,0.6934126454015337,0.0
